Data from JAZcentrevisible_14-20-14-165.txt Node
Date: Fri Jan 11 14:20:14 CET 2019
User: Mistral4
Spectrometer: JAZA2312
Trigger mode: 0
Integration Time (sec): 1.000000E0
Scans to average: 1
Electric dark correction enabled: true
Nonlinearity correction enabled: false
Boxcar width: 0
XAxis mode: Wavelengths
Number of Pixels in Spectrum: 2048
>>>>>Begin Spectral Data<<<<<
521.614	-84.14
521.728	-84.14
521.842	-84.14
521.955	-150.38
522.069	-157.48
522.183	-6.06
522.297	95.67
522.41	1.04
522.524	1.04
522.638	-36.82
522.751	105.13
522.865	3.4
522.979	-55.75
523.092	10.5
523.206	95.67
523.319	17.6
523.433	10.5
523.546	150.09
523.66	27.06
523.773	-84.14
523.887	-100.7
524	-22.62
524.113	24.69
524.227	-34.45
524.34	1910.3
524.453	7259.57
524.566	7455.94
524.68	7415.72
524.793	7205.15
524.906	7183.86
525.019	7493.79
525.132	7517.45
525.245	7465.4
525.358	7560.04
525.471	7458.3
525.584	7515.08
525.697	7463.03
525.81	7635.74
525.923	7548.21
526.036	7583.69
526.149	7638.11
526.262	7616.82
526.375	7869.97
526.487	7406.25
526.6	7510.35
526.713	7633.38
526.826	7796.62
526.938	7782.43
527.051	7777.7
527.164	7756.4
527.276	7981.16
527.389	7813.19
527.501	7685.43
527.614	7955.14
527.727	7945.68
527.839	8021.38
527.951	7808.45
528.064	8016.65
528.176	7917.28
528.289	7919.65
528.401	8016.65
528.513	7635.74
528.626	7957.5
528.738	7697.26
528.85	8054.51
528.963	7926.75
529.075	8156.24
529.187	7985.9
529.299	7940.94
529.411	7806.09
529.523	7988.26
529.635	8014.29
529.747	8125.48
529.86	8253.24
529.972	8066.34
530.084	7938.58
530.195	7853.41
530.307	8127.85
530.419	7886.53
530.531	8262.7
530.643	8203.56
530.755	8267.44
530.867	8099.46
530.978	8196.46
531.09	8120.75
531.202	8224.85
531.314	8019.02
531.425	8016.65
531.537	8281.63
531.649	7978.8
531.76	8089.99
531.872	8191.73
531.983	8063.97
532.095	8345.51
532.206	8198.82
532.318	8354.97
532.429	8357.34
532.541	8248.51
532.652	8281.63
532.763	8362.07
532.875	7914.92
532.986	8052.14
533.097	8153.87
533.209	8430.68
533.32	8097.09
533.431	8191.73
533.542	8146.78
533.653	8369.17
533.765	8305.29
533.876	8485.1
533.987	8369.17
534.098	8430.68
534.209	8331.31
534.32	8354.97
534.431	8205.92
534.542	8641.25
534.653	8470.9
534.764	8501.66
534.874	8383.36
534.985	8343.14
535.096	8712.22
535.207	8295.83
535.318	8395.19
535.429	8366.8
535.539	8584.46
535.65	8395.19
535.761	8565.54
535.871	8615.22
535.982	8527.68
536.092	8525.32
536.203	8726.42
536.314	8336.05
536.424	8373.9
536.535	8496.93
536.645	8411.75
536.756	8475.63
536.866	8305.29
536.976	8773.73
537.087	8525.32
537.197	8518.22
537.307	8354.97
537.418	8629.42
537.528	8518.22
537.638	8546.61
537.748	8397.56
537.859	8619.95
537.969	8364.44
538.079	8402.29
538.189	8686.2
538.299	8459.07
538.409	8676.73
538.519	8428.32
538.629	8608.12
538.739	8712.22
538.849	8667.27
538.959	8511.12
539.069	8667.27
539.179	8896.76
539.289	8887.3
539.399	8612.85
539.508	8596.29
539.618	8631.78
539.728	8589.2
539.838	8835.25
539.947	8787.93
540.057	8690.93
540.167	8660.17
540.276	8679.1
540.386	8660.17
540.495	8861.27
540.605	8591.56
540.715	8832.88
540.824	8657.81
540.933	8769
541.043	8655.44
541.152	9033.98
541.262	8629.42
541.371	8747.71
541.48	8785.56
541.59	8896.76
541.699	8873.1
541.808	8733.51
541.918	9171.2
542.027	8906.22
542.136	8785.56
542.245	8785.56
542.354	8974.83
542.463	8780.83
542.573	8863.64
542.682	8894.39
542.791	8828.15
542.9	8929.88
543.009	8915.69
543.118	8795.03
543.227	8858.91
543.335	9090.76
543.444	9180.67
543.553	8809.22
543.662	9015.05
543.771	9133.35
543.88	8993.76
543.988	8823.42
544.097	8963.01
544.206	8851.81
544.314	9100.23
544.423	8877.83
544.532	9192.5
544.64	9041.08
544.749	8839.98
544.857	8813.95
544.966	8828.15
545.075	8849.44
545.183	9048.18
545.291	9197.23
545.4	8731.15
545.508	8799.76
545.617	8967.74
545.725	8740.61
545.833	8944.08
545.942	8873.1
546.05	9043.45
546.158	9284.77
546.266	9294.23
546.375	9057.64
546.483	8948.81
546.591	9102.59
546.699	9227.98
546.807	9145.18
546.915	8989.03
547.023	9244.55
547.131	9121.52
547.239	9455.11
547.347	9107.32
547.455	9093.13
547.563	9043.45
547.671	9175.94
547.779	9183.03
547.887	9199.59
547.994	8989.03
548.102	9168.84
548.21	9159.37
548.318	9282.4
548.425	9201.96
548.533	9218.52
548.641	9379.4
548.748	9355.74
548.856	9339.18
548.963	9549.74
549.071	9237.45
549.179	9443.28
549.286	9211.42
549.394	9272.94
549.501	9166.47
549.608	9381.77
549.716	9317.89
549.823	9438.55
549.931	9277.67
550.038	9244.55
550.145	9580.5
550.252	9209.06
550.36	9353.38
550.467	9372.3
550.574	9218.52
550.681	9280.03
550.788	9502.43
550.896	9589.96
551.003	9384.13
551.11	9270.57
551.217	9303.69
551.324	9476.4
551.431	9530.82
551.538	9414.89
551.645	9381.77
551.752	9405.43
551.858	9535.55
551.965	9691.7
552.072	9504.79
552.179	9537.92
552.286	9668.04
552.392	9535.55
552.499	9268.2
552.606	9547.38
552.713	9433.82
552.819	9511.89
552.926	9492.96
553.032	9630.18
553.139	9613.62
553.246	9724.82
553.352	9651.48
553.459	9388.86
553.565	9594.7
553.672	9672.77
553.778	9521.35
553.884	9705.89
553.991	9663.31
554.097	9760.31
554.203	9717.72
554.31	9743.75
554.416	9604.16
554.522	9495.33
554.629	9757.94
554.735	9772.14
554.841	9448.01
554.947	9476.4
555.053	9708.26
555.159	9746.11
555.265	10832.05
555.371	9843.11
555.477	9748.48
555.583	12211.36
555.689	9968.51
555.795	9710.62
555.901	10044.21
556.007	9937.75
556.113	9731.92
556.219	10041.85
556.325	9767.41
556.43	9757.94
556.536	9608.89
556.642	9869.14
556.748	9717.72
556.853	9869.14
556.959	9795.8
557.065	9760.31
557.17	9698.8
557.276	9970.87
557.381	9880.97
557.487	9831.29
557.592	9918.82
557.698	10001.63
557.803	9774.5
557.909	9937.75
558.014	9980.34
558.119	9791.07
558.225	10086.8
558.33	10044.21
558.435	10115.19
558.541	10030.02
558.646	10034.75
558.751	10183.8
558.856	9963.77
558.962	10006.36
559.067	10006.36
559.172	9857.31
559.277	10134.12
559.382	10048.95
559.487	9959.04
559.592	10110.46
559.697	10065.51
559.802	10056.04
559.907	10138.85
560.012	10110.46
560.117	10245.31
560.222	10101
560.327	10323.39
560.431	10198
560.536	10136.48
560.641	9973.24
560.746	10337.58
560.85	9944.85
560.955	10295
561.06	10138.85
561.164	10342.32
561.269	10183.8
561.373	9994.53
561.478	10351.78
561.583	10221.66
561.687	10387.27
561.792	10304.46
561.896	10401.46
562	10569.44
562.105	10493.73
562.209	10401.46
562.314	10399.1
562.418	10373.07
562.522	10276.07
562.627	10325.75
562.731	10574.17
562.835	10261.88
562.939	10325.75
563.043	10160.14
563.148	10311.56
563.252	10467.71
563.356	10550.51
563.46	10564.71
563.564	10349.41
563.668	10602.56
563.772	10406.2
563.876	10432.22
563.98	10365.97
564.084	10647.52
564.188	10394.37
564.291	10410.93
564.395	10604.93
564.499	10597.83
564.603	10720.86
564.707	10623.86
564.81	10578.9
564.914	10576.54
565.018	10418.02
565.121	10630.95
565.225	10749.25
565.329	10614.39
565.432	10458.24
565.536	10753.98
565.639	10635.69
565.743	10503.2
565.846	10642.78
565.95	10720.86
566.053	10656.98
566.157	10690.1
566.26	10604.93
566.363	10645.15
566.467	10839.15
566.57	10410.93
566.673	10649.88
566.777	10820.22
566.88	10697.2
566.983	10727.96
567.086	10735.05
567.189	10529.22
567.292	10891.2
567.396	10519.76
567.499	10623.86
567.602	10569.44
567.705	10770.54
567.808	10304.46
567.911	10675.91
568.014	10633.32
568.117	10654.61
568.219	10590.73
568.322	10595.47
568.425	10628.59
568.528	10642.78
568.631	10609.66
568.734	10808.4
568.836	10517.39
568.939	10543.42
569.042	10467.71
569.144	10649.88
569.247	10567.08
569.35	10687.74
569.452	10718.49
569.555	10765.81
569.657	10784.74
569.76	10794.2
569.862	10515.03
569.965	10732.69
570.067	10512.66
570.17	10723.22
570.272	10862.81
570.374	10929.06
570.477	10753.98
570.579	10879.37
570.681	10515.03
570.784	10775.27
570.886	10571.81
570.988	10692.47
571.09	10616.76
571.192	11009.5
571.294	10929.06
571.397	10796.57
571.499	10817.86
571.601	10586
571.703	10588.37
571.805	10671.17
571.907	10789.47
572.009	10858.08
572.11	10784.74
572.212	10820.22
572.314	10829.69
572.416	10834.42
572.518	10791.83
572.62	10680.64
572.721	10782.37
572.823	10850.98
572.925	10955.08
573.027	10808.4
573.128	11037.89
573.23	11153.81
573.332	10978.74
573.433	11127.79
573.535	11279.21
573.636	11160.91
573.738	11371.48
573.839	11139.62
573.941	11272.11
574.042	11444.82
574.144	11293.4
574.245	11366.74
574.346	11182.21
574.448	11160.91
574.549	11101.77
574.65	11390.4
574.751	11574.94
574.853	10974.01
574.954	11347.82
575.055	11118.33
575.156	11153.81
575.257	11352.55
575.358	11447.18
575.46	11108.86
575.561	11123.06
575.662	11184.57
575.763	11246.08
575.864	11094.67
575.965	11333.62
576.065	11075.74
576.166	11144.35
576.267	11111.23
576.368	11056.81
576.469	11030.79
576.57	11115.96
576.671	11056.81
576.771	11175.11
576.872	10872.27
576.973	11026.06
577.073	10898.3
577.174	11123.06
577.275	11205.86
577.375	11127.79
577.476	11120.69
577.576	11073.37
577.677	10969.28
577.777	10959.81
577.878	11123.06
577.978	10992.93
578.079	11108.86
578.179	11023.69
578.279	11345.45
578.38	11056.81
578.48	10988.2
578.58	11080.47
578.681	11229.52
578.781	11149.08
578.881	10966.91
578.981	10914.86
579.081	10962.18
579.181	11056.81
579.282	10888.84
579.382	11113.59
579.482	11300.5
579.582	11194.03
579.682	11071.01
579.782	11021.32
579.882	10974.01
579.982	10895.93
580.081	11186.94
580.181	10817.86
580.281	11125.42
580.381	10981.1
580.481	10900.66
580.581	10877.01
580.68	10929.06
580.78	11248.45
580.88	11307.6
580.979	10910.13
581.079	10983.47
581.179	11281.57
581.278	11089.94
581.378	10640.42
581.477	11054.45
581.577	10974.01
581.676	10853.35
581.776	10917.23
581.875	11205.86
581.975	11123.06
582.074	10806.03
582.173	11364.38
582.273	10931.42
582.372	11007.13
582.471	10983.47
582.571	11099.4
582.67	10931.42
582.769	11080.47
582.868	11134.89
582.967	11191.67
583.067	11768.94
583.166	11014.23
583.265	11056.81
583.364	10988.2
583.463	11288.67
583.562	10929.06
583.661	10782.37
583.76	10919.59
583.859	11052.08
583.958	11052.08
584.056	11014.23
584.155	10839.15
584.254	10742.15
584.353	10926.69
584.452	10900.66
584.55	10976.37
584.649	10938.52
584.748	10962.18
584.847	10962.18
584.945	11071.01
585.044	10827.32
585.142	11217.69
585.241	11068.64
585.34	10697.2
585.438	10869.91
585.537	10893.57
585.635	11137.25
585.733	10718.49
585.832	10803.66
585.93	10966.91
586.029	10865.18
586.127	11075.74
586.225	10758.71
586.324	10706.66
586.422	10898.3
586.52	10988.2
586.618	10983.47
586.716	10957.45
586.815	10945.62
586.913	10888.84
587.011	10723.22
587.109	11052.08
587.207	10929.06
587.305	10900.66
587.403	10900.66
587.501	10929.06
587.599	10903.03
587.697	10787.1
587.795	10751.61
587.893	10699.56
587.991	10881.74
588.088	11007.13
588.186	11021.32
588.284	11106.5
588.382	10872.27
588.479	11028.42
588.577	11092.3
588.675	10612.03
588.772	11099.4
588.87	10924.32
588.968	10924.32
589.065	10985.84
589.163	11026.06
589.26	11004.76
589.358	11023.69
589.455	10694.83
589.553	10789.47
589.65	11127.79
589.748	11042.62
589.845	10933.79
589.942	10886.47
590.04	11030.79
590.137	11066.28
590.234	10798.93
590.331	11144.35
590.429	10926.69
590.526	10758.71
590.623	11087.57
590.72	10903.03
590.817	10917.23
590.914	11044.98
591.011	10988.2
591.108	10914.86
591.205	10924.32
591.302	10768.18
591.399	11175.11
591.496	11108.86
591.593	11061.55
591.69	10905.4
591.787	11071.01
591.884	11000.03
591.98	10841.52
592.077	10912.49
592.174	10813.13
592.271	11168.01
592.367	10931.42
592.464	11215.33
592.561	11127.79
592.657	11026.06
592.754	11248.45
592.851	11151.45
592.947	10976.37
593.044	10926.69
593.14	10933.79
593.237	10988.2
593.333	11011.86
593.429	10981.1
593.526	11134.89
593.622	10957.45
593.719	11125.42
593.815	10862.81
593.911	10716.13
594.007	11163.28
594.104	10964.54
594.2	10978.74
594.296	11007.13
594.392	11127.79
594.488	10917.23
594.584	11004.76
594.681	10959.81
594.777	11537.09
594.873	10988.2
594.969	11340.72
595.065	11269.74
595.161	10917.23
595.257	11165.64
595.352	10841.52
595.448	11130.16
595.544	11253.18
595.64	11246.08
595.736	11153.81
595.832	11236.62
595.927	11191.67
596.023	11177.47
596.119	11137.25
596.214	11345.45
596.31	11078.11
596.406	11276.84
596.501	11390.4
596.597	11212.96
596.692	10997.67
596.788	11021.32
596.884	11087.57
596.979	11099.4
597.074	11364.38
597.17	11392.77
597.265	11295.77
597.361	11028.42
597.456	11480.31
597.551	11085.2
597.647	11362.01
597.742	11444.82
597.837	10924.32
597.932	11276.84
598.027	11182.21
598.123	11335.99
598.218	11205.86
598.313	10978.74
598.408	11473.21
598.503	11092.3
598.598	11177.47
598.693	11402.23
598.788	11300.5
598.883	11501.6
598.978	11153.81
599.073	11132.52
599.168	11354.91
599.263	11305.23
599.357	11425.89
599.452	11461.38
599.547	11177.47
599.642	11376.21
599.737	11508.7
599.831	11089.94
599.926	11236.62
600.021	11291.04
600.115	11499.23
600.21	11383.31
600.304	11357.28
600.399	11657.75
600.493	11520.53
600.588	11338.35
600.682	11276.84
600.777	11295.77
600.871	11276.84
600.966	11461.38
601.06	11184.57
601.154	11397.5
601.249	11274.47
601.343	11556.01
601.437	11321.79
601.532	11378.57
601.626	11728.72
601.72	11501.6
601.814	11622.26
601.908	11544.19
602.002	11255.55
602.096	11409.33
602.191	11496.87
602.285	11406.96
602.379	11388.04
602.473	11660.11
602.567	11482.67
602.66	11338.35
602.754	11466.11
602.848	11667.21
602.942	11671.94
603.036	11645.92
603.13	11470.84
603.224	11643.55
603.317	11570.21
603.411	11470.84
603.505	11298.13
603.598	11423.53
603.692	11681.41
603.786	11354.91
603.879	11435.35
603.973	11477.94
604.066	11671.94
604.16	11378.57
604.253	11269.74
604.347	11411.7
604.44	11653.02
604.534	11572.58
604.627	11605.7
604.721	11541.82
604.814	11643.55
604.907	11695.6
605.001	11851.75
605.094	11527.62
605.187	11605.7
605.28	11679.04
605.373	11783.14
605.467	11754.75
605.56	11432.99
605.653	11745.29
605.746	11712.16
605.839	11764.21
605.932	11603.33
606.025	11731.09
606.118	11494.5
606.211	11792.6
606.304	11773.68
606.397	11634.09
606.49	11785.51
606.583	11865.95
606.676	11738.19
606.768	11688.5
606.861	11745.29
606.954	11733.46
607.047	11702.7
607.139	12104.9
607.232	11823.36
607.325	11466.11
607.417	11660.11
607.51	11745.29
607.602	11671.94
607.695	11832.82
607.788	11844.65
607.88	12258.68
607.973	11546.55
608.065	11610.43
608.157	11813.9
608.25	11622.26
608.342	11662.48
608.435	11988.97
608.527	11726.36
608.619	11750.02
608.711	11527.62
608.804	11742.92
608.896	11461.38
608.988	11612.8
609.08	11752.38
609.172	11629.36
609.265	11669.58
609.357	11525.26
609.449	11761.85
609.541	12029.19
609.633	11790.24
609.725	11667.21
609.817	11548.92
609.909	11560.75
610.001	11799.7
610.092	11558.38
610.184	11712.16
610.276	11806.8
610.368	11745.29
610.46	11790.24
610.552	11768.94
610.643	11563.11
610.735	11653.02
610.827	12426.66
610.918	11605.7
611.01	11641.19
611.102	11529.99
611.193	11591.5
611.285	11764.21
611.376	11558.38
611.468	11600.97
611.559	11660.11
611.651	11688.5
611.742	11681.41
611.833	11475.57
611.925	11615.16
612.016	11553.65
612.108	11503.97
612.199	11839.92
612.29	11503.97
612.381	11520.53
612.473	11605.7
612.564	11499.23
612.655	11577.31
612.746	11645.92
612.837	11731.09
612.928	11591.5
613.019	11655.38
613.11	11513.43
613.201	11624.63
613.292	11671.94
613.383	11624.63
613.474	11520.53
613.565	11444.82
613.656	11643.55
613.747	11532.36
613.838	11421.16
613.929	11887.24
614.019	11463.75
614.11	11768.94
614.201	11752.38
614.292	11655.38
614.382	11605.7
614.473	11714.53
614.564	11650.65
614.654	11752.38
614.745	11548.92
614.835	11605.7
614.926	11707.43
615.016	11631.72
615.107	11891.97
615.197	11534.72
615.288	11295.77
615.378	11416.43
615.469	11302.87
615.559	12069.41
615.649	11506.33
615.74	11463.75
615.83	11435.35
615.92	11518.16
616.01	11499.23
616.101	11546.55
616.191	11584.41
616.281	11492.14
616.371	11605.7
616.461	11312.33
616.551	11570.21
616.641	11340.72
616.731	11716.9
616.821	11638.82
616.911	11544.19
617.001	11572.58
617.091	11392.77
617.181	11572.58
617.271	11641.19
617.361	11629.36
617.45	11373.84
617.54	11508.7
617.63	11891.97
617.72	11596.23
617.809	11442.45
617.899	11529.99
617.989	11354.91
618.078	11615.16
618.168	11425.89
618.258	11525.26
618.347	11345.45
618.437	11459.01
618.526	11563.11
618.616	11409.33
618.705	11570.21
618.795	11397.5
618.884	11312.33
618.973	11537.09
619.063	11338.35
619.152	11423.53
619.241	11380.94
619.331	11430.62
619.42	11335.99
619.509	11335.99
619.598	11236.62
619.688	11442.45
619.777	11388.04
619.866	11437.72
619.955	11319.43
620.044	11357.28
620.133	11175.11
620.222	11324.16
620.311	11300.5
620.4	11210.6
620.489	11236.62
620.578	11269.74
620.667	11430.62
620.756	11262.65
620.845	11319.43
620.933	11525.26
621.022	11137.25
621.111	11108.86
621.2	11220.06
621.288	11021.32
621.377	11324.16
621.466	11080.47
621.554	11265.01
621.643	11125.42
621.732	10910.13
621.82	11212.96
621.909	11461.38
621.997	11392.77
622.086	11411.7
622.174	11158.55
622.263	10974.01
622.351	11134.89
622.439	11056.81
622.528	11146.72
622.616	11482.67
622.704	11269.74
622.793	11196.4
622.881	11085.2
622.969	11236.62
623.057	10950.35
623.145	11248.45
623.234	11177.47
623.322	11092.3
623.41	11231.89
623.498	11179.84
623.586	10992.93
623.674	11236.62
623.762	10997.67
623.85	10952.71
623.938	10815.49
624.026	11168.01
624.114	10936.15
624.202	10697.2
624.289	11033.15
624.377	10921.96
624.465	11071.01
624.553	11182.21
624.641	11463.75
624.728	10810.76
624.816	11059.18
624.904	11262.65
624.991	10936.15
625.079	10751.61
625.166	11253.18
625.254	11087.57
625.342	10753.98
625.429	10716.13
625.517	10955.08
625.604	10952.71
625.691	10836.79
625.779	10824.96
625.866	10888.84
625.954	10907.76
626.041	10827.32
626.128	10912.49
626.216	10645.15
626.303	10789.47
626.39	10673.54
626.477	10716.13
626.564	10751.61
626.652	10971.64
626.739	10893.57
626.826	10945.62
626.913	10612.03
627	10768.18
627.087	10614.39
627.174	10725.59
627.261	10647.52
627.348	10526.86
627.435	10751.61
627.522	10912.49
627.609	10512.66
627.695	10647.52
627.782	11047.35
627.869	10434.59
627.956	10630.95
628.043	10496.1
628.129	10668.81
628.216	10590.73
628.303	10524.49
628.389	10668.81
628.476	10850.98
628.562	10427.49
628.649	10597.83
628.736	10803.66
628.822	10439.32
628.909	10761.08
628.995	10467.71
629.081	10460.61
629.168	10555.25
629.254	10467.71
629.341	10590.73
629.427	10455.88
629.513	10363.61
629.6	10848.62
629.686	10396.73
629.772	10278.44
629.858	10576.54
629.944	10517.39
630.031	10472.44
630.117	10458.24
630.203	10446.42
630.289	10555.25
630.375	10524.49
630.461	10302.1
630.547	10479.54
630.633	10316.29
630.719	10503.2
630.805	10593.1
630.891	10295
630.977	10174.34
631.062	10330.49
631.148	10349.41
631.234	10465.34
631.32	10763.44
631.406	10295
631.491	10429.85
631.577	10649.88
631.663	10396.73
631.748	10394.37
631.834	12521.3
631.92	10389.63
632.005	10387.27
632.091	10470.07
632.176	10292.63
632.262	10302.1
632.347	10432.22
632.433	10259.51
632.518	10439.32
632.603	10406.2
632.689	10259.51
632.774	10306.83
632.859	10117.56
632.945	10335.22
633.03	10096.26
633.115	10202.73
633.2	10432.22
633.286	10119.92
633.371	10418.02
633.456	10261.88
633.541	10280.8
633.626	10313.93
633.711	10089.17
633.796	10008.73
633.881	10224.02
633.966	10297.36
634.051	9973.24
634.136	10096.26
634.221	10200.36
634.306	10162.51
634.391	10240.58
634.475	10051.31
634.56	9852.58
634.645	9895.16
634.73	10216.92
634.814	10257.14
634.899	9944.85
634.984	10077.34
635.068	10287.9
635.153	10231.12
635.238	10127.02
635.322	10046.58
635.407	10143.58
635.491	9854.94
635.576	10292.63
635.66	9956.68
635.745	10328.12
635.829	9999.26
635.914	10110.46
635.998	10070.24
636.082	9954.31
636.167	10079.7
636.251	9999.26
636.335	10145.95
636.419	10122.29
636.504	9956.68
636.588	9918.82
636.672	9970.87
636.756	9996.9
636.84	9878.6
636.924	9985.07
637.008	9888.07
637.092	10060.78
637.176	9940.12
637.26	9935.38
637.344	9944.85
637.428	10176.7
637.512	9729.55
637.596	10108.09
637.68	9968.51
637.764	9739.02
637.847	10176.7
637.931	10077.34
638.015	9906.99
638.099	10224.02
638.182	9987.43
638.266	9748.48
638.35	9850.21
638.433	9847.85
638.517	10323.39
638.6	9951.95
638.684	9949.58
638.768	9902.26
638.851	9701.16
638.934	9694.06
639.018	9852.58
639.101	10001.63
639.185	9992.17
639.268	9840.75
639.351	9679.87
639.435	9911.73
639.518	10060.78
639.601	9918.82
639.685	9902.26
639.768	9802.89
639.851	9878.6
639.934	9817.09
640.017	9847.85
640.1	9845.48
640.183	9670.4
640.266	9940.12
640.35	9989.8
640.433	9831.29
640.516	9696.43
640.598	9892.8
640.681	9776.87
640.764	9793.43
640.847	9871.51
640.93	9445.65
641.013	11988.97
641.096	9795.8
641.178	9824.19
641.261	9930.65
641.344	9786.33
641.427	9750.85
641.509	9696.43
641.592	9739.02
641.675	9809.99
641.757	9623.09
641.84	9795.8
641.922	9649.11
642.005	9791.07
642.087	9630.18
642.17	9483.5
642.252	9698.8
642.335	9414.89
642.417	9623.09
642.499	9474.04
642.582	9535.55
642.664	9497.7
642.746	9421.99
642.829	9310.79
642.911	9623.09
642.993	9469.3
643.075	9514.26
643.157	9632.55
643.24	9324.99
643.322	9518.99
643.404	9521.35
643.486	9466.94
643.568	9528.45
643.65	9708.26
643.732	9604.16
643.814	9374.67
643.896	9485.87
643.978	9708.26
644.06	9395.96
644.141	9523.72
644.223	9438.55
644.305	9658.58
644.387	9637.28
644.469	9660.94
644.55	9450.38
644.632	9665.67
644.714	9689.33
644.795	9580.5
644.877	9490.6
644.959	9571.04
645.04	9608.89
645.122	9651.48
645.203	9712.99
645.285	9672.77
645.366	9589.96
645.448	9578.14
645.529	9601.79
645.61	9769.77
645.692	9400.69
645.773	9750.85
645.854	9436.18
645.936	9656.21
646.017	9717.72
646.098	9869.14
646.179	9438.55
646.261	9403.06
646.342	9561.57
646.423	9497.7
646.504	9310.79
646.585	9462.21
646.666	9426.72
646.747	9660.94
646.828	9639.65
646.909	9244.55
646.99	9791.07
647.071	9623.09
647.152	9474.04
647.233	9540.28
647.314	9417.26
647.395	9632.55
647.475	9871.51
647.556	9597.06
647.637	9710.62
647.718	9516.62
647.798	9753.21
647.879	9405.43
647.96	9549.74
648.04	9646.75
648.121	9660.94
648.202	9502.43
648.282	9459.84
648.363	9379.4
648.443	9440.91
648.524	9623.09
648.604	9346.28
648.684	9258.74
648.765	9327.35
648.845	9575.77
648.926	9783.97
649.006	9246.91
649.086	9720.09
649.166	10292.63
649.247	9644.38
649.327	9634.92
649.407	9561.57
649.487	9828.92
649.567	9589.96
649.648	9587.6
649.728	9414.89
649.808	9668.04
649.888	9585.23
649.968	9552.11
650.048	9753.21
650.128	9398.33
650.208	9554.48
650.288	9615.99
650.367	9615.99
650.447	9476.4
650.527	9703.53
650.607	9374.67
650.687	9514.26
650.766	9516.62
650.846	9582.87
650.926	9339.18
651.006	9462.21
651.085	9634.92
651.165	9459.84
651.244	9526.09
651.324	9518.99
651.404	9369.94
651.483	9329.72
651.563	9445.65
651.642	9585.23
651.722	9592.33
651.801	9315.52
651.88	9471.67
651.96	9594.7
652.039	9518.99
652.118	9327.35
652.198	9303.69
652.277	9625.45
652.356	9327.35
652.435	9424.35
652.515	9476.4
652.594	9433.82
652.673	9492.96
652.752	9511.89
652.831	9424.35
652.91	9227.98
652.989	9618.36
653.068	9369.94
653.147	9341.55
653.226	9336.82
653.305	9315.52
653.384	9284.77
653.463	9549.74
653.542	9627.82
653.621	9329.72
653.699	9414.89
653.778	9677.5
653.857	9736.65
653.936	9469.3
654.014	9561.57
654.093	9537.92
654.172	9469.3
654.25	9391.23
654.329	9483.5
654.408	9154.64
654.486	9336.82
654.565	9426.72
654.643	9395.96
654.722	9554.48
654.8	9246.91
654.879	9495.33
654.957	9485.87
655.035	9594.7
655.114	9313.16
655.192	9405.43
655.27	9355.74
655.349	9634.92
655.427	9339.18
655.505	9440.91
655.583	9476.4
655.661	9611.26
655.74	9360.47
655.818	9452.74
655.896	9294.23
655.974	9488.23
656.052	9332.08
656.13	9573.4
656.208	9703.53
656.286	9606.53
656.364	9476.4
656.442	9263.47
656.52	9336.82
656.597	9320.25
656.675	9272.94
656.753	9559.21
656.831	9298.96
656.909	9485.87
656.986	9377.04
657.064	9509.52
657.142	9133.35
657.219	9554.48
657.297	9192.5
657.375	9372.3
657.452	9280.03
657.53	9365.21
657.607	9594.7
657.685	9270.57
657.762	9223.25
657.84	9393.6
657.917	9339.18
657.995	9201.96
658.072	9280.03
658.149	9232.72
658.227	9568.67
658.304	9471.67
658.381	9334.45
658.458	9280.03
658.536	9526.09
658.613	9481.13
658.69	9152.28
658.767	9485.87
658.844	9464.57
658.921	9223.25
658.998	9324.99
659.076	9322.62
659.153	9138.08
659.23	9485.87
659.306	9436.18
659.383	9559.21
659.46	9445.65
659.537	9254.01
659.614	9220.89
659.691	9492.96
659.768	9220.89
659.845	9135.72
659.921	9280.03
659.998	9067.1
660.075	9660.94
660.151	9412.52
660.228	9249.28
660.305	9197.23
660.381	9180.67
660.458	9339.18
660.534	9230.35
660.611	9251.64
660.688	9377.04
660.764	9367.57
660.84	9254.01
660.917	8929.88
660.993	9443.28
661.07	9194.86
661.146	9216.16
661.222	9026.88
661.299	9164.11
661.375	9256.38
661.451	9296.6
661.527	9104.96
661.604	9599.43
661.68	9206.69
661.756	9048.18
661.832	9154.64
661.908	9384.13
661.984	9388.86
662.06	9412.52
662.136	9187.76
662.212	9403.06
662.288	9230.35
662.364	9022.15
662.44	9171.2
662.516	9284.77
662.592	8972.47
662.668	9000.86
662.744	9116.79
662.819	9074.2
662.895	9358.11
662.971	9045.81
663.047	9204.33
663.122	9045.81
663.198	9093.13
663.273	9249.28
663.349	9227.98
663.425	9358.11
663.5	9216.16
663.576	9227.98
663.651	8958.27
663.727	9007.96
663.802	9180.67
663.878	9036.35
663.953	8984.3
664.028	9244.55
664.104	9128.62
664.179	9230.35
664.254	9114.42
664.33	9062.37
664.405	8922.79
664.48	8939.35
664.555	9123.89
664.631	9104.96
664.706	9036.35
664.781	9164.11
664.856	9213.79
664.931	8884.93
665.006	9209.06
665.081	9272.94
665.156	9239.81
665.231	9152.28
665.306	9015.05
665.381	8863.64
665.456	9083.67
665.531	9033.98
665.606	8806.86
665.68	9301.33
665.755	9041.08
665.83	8821.05
665.905	9081.3
665.979	8903.86
666.054	8948.81
666.129	8939.35
666.203	8832.88
666.278	8986.66
666.353	9019.79
666.427	9164.11
666.502	9168.84
666.576	9033.98
666.651	8948.81
666.725	9114.42
666.8	8719.32
666.874	9067.1
666.948	8939.35
667.023	8863.64
667.097	9164.11
667.171	9000.86
667.246	9114.42
667.32	9152.28
667.394	9017.42
667.468	8974.83
667.542	9024.52
667.617	8842.35
667.691	9090.76
667.765	8996.13
667.839	8795.03
667.913	9166.47
667.987	8903.86
668.061	8778.47
668.135	8984.3
668.209	8963.01
668.283	9178.3
668.357	8724.05
668.431	8764.27
668.504	9005.59
668.578	8792.66
668.652	8804.49
668.726	8761.91
668.8	8868.37
668.873	8716.95
668.947	8873.1
669.021	8856.54
669.094	8934.61
669.168	8773.73
669.241	9159.37
669.315	8662.54
669.389	8922.79
669.462	8823.42
669.536	8875.47
669.609	8761.91
669.682	8657.81
669.756	8901.49
669.829	9052.91
669.903	8972.47
669.976	8889.66
670.049	8719.32
670.123	8922.79
670.196	8799.76
670.269	8792.66
670.342	8858.91
670.415	8676.73
670.489	8683.83
670.562	8828.15
670.635	8792.66
670.708	8513.49
670.781	8662.54
670.854	8702.76
670.927	8745.34
671	8892.03
671.073	8589.2
671.146	8780.83
671.219	8716.95
671.292	8570.27
671.364	8759.54
671.437	8707.49
671.51	8650.71
671.583	8709.86
671.656	8674.37
671.728	8650.71
671.801	8660.17
671.874	8759.54
671.946	8674.37
672.019	8402.29
672.091	8437.78
672.164	8645.98
672.237	8454.34
672.309	8655.44
672.382	8378.63
672.454	8530.05
672.526	8681.47
672.599	8712.22
672.671	8570.27
672.744	8645.98
672.816	8416.49
672.888	8407.02
672.961	8350.24
673.033	8194.09
673.105	8537.15
673.177	8352.61
673.249	8541.88
673.322	8362.07
673.394	8610.49
673.466	8485.1
673.538	8539.51
673.61	8468.54
673.682	8397.56
673.754	8397.56
673.826	8310.02
673.898	8399.92
673.97	8522.95
674.042	8470.9
674.114	8601.03
674.185	8444.88
674.257	8279.26
674.329	8631.78
674.401	8610.49
674.473	8291.09
674.544	8187
674.616	8130.21
674.688	8302.92
674.759	8385.73
674.831	8534.78
674.902	8522.95
674.974	8407.02
675.046	8388.1
675.117	8381
675.189	8037.94
675.26	8213.02
675.331	8369.17
675.403	8345.51
675.474	8421.22
675.546	8414.12
675.617	8319.48
675.688	8312.39
675.76	8203.56
675.831	8241.41
675.902	8220.12
675.973	8373.9
676.044	8002.46
676.116	8239.04
676.187	8473.27
676.258	8525.32
676.329	8295.83
676.4	8310.02
676.471	8229.58
676.542	8111.29
676.613	8132.58
676.684	8733.51
676.755	8246.14
676.826	8187
676.897	8350.24
676.968	8191.73
677.038	7955.14
677.109	8340.78
677.18	8035.58
677.251	8160.97
677.321	8158.6
677.392	8175.17
677.463	8011.92
677.533	8234.31
677.604	8104.19
677.675	7872.33
677.745	7924.38
677.816	8231.95
677.886	8220.12
677.957	8127.85
678.027	8224.85
678.098	8189.36
678.168	8182.26
678.238	8160.97
678.309	8066.34
678.379	7981.16
678.449	8137.31
678.52	8189.36
678.59	8113.65
678.66	7895.99
678.73	7912.55
678.801	8156.24
678.871	8071.07
678.941	7962.24
679.011	7806.09
679.081	7827.38
679.151	7948.04
679.221	7860.5
679.291	7978.8
679.361	8125.48
679.431	7758.77
679.501	7848.67
679.571	8037.94
679.641	7683.06
679.711	7924.38
679.781	7903.09
679.85	7794.26
679.92	7744.57
679.99	7919.65
680.06	7924.38
680.129	7550.57
680.199	7924.38
680.269	7756.4
680.338	7666.5
680.408	7851.04
680.477	7659.4
680.547	7567.13
680.616	7560.04
680.686	7716.18
680.755	7808.45
680.825	7877.06
680.894	7744.57
680.964	7687.79
681.033	7808.45
681.102	7772.97
681.172	7881.8
681.241	7642.84
681.31	7749.31
681.379	7739.84
681.449	7671.23
681.518	7633.38
681.587	7576.6
681.656	7567.13
681.725	7633.38
681.794	7728.01
681.863	7666.5
681.932	7576.6
682.001	7640.48
682.07	7455.94
682.139	7503.25
682.208	7832.11
682.277	7306.89
682.346	7574.23
682.415	7586.06
682.484	7524.55
682.553	7427.55
682.621	7725.65
682.69	7429.91
682.759	7448.84
682.828	7545.84
682.896	7309.25
682.965	7505.62
683.033	7434.64
683.102	7477.23
683.171	7491.43
683.239	7593.16
683.308	7515.08
683.376	7399.16
683.445	7356.57
683.513	7600.26
683.582	7602.62
683.65	7278.5
683.718	7375.5
683.787	7418.08
683.855	7053.74
683.923	7347.11
683.991	7224.08
684.06	7429.91
684.128	7444.11
684.196	7403.89
684.264	7292.69
684.332	7231.18
684.401	7340.01
684.469	7318.72
684.537	7299.79
684.605	7347.11
684.673	7200.42
684.741	7181.49
684.809	7292.69
684.877	7089.22
684.945	7228.81
685.012	7136.54
685.08	7179.13
685.148	7216.98
685.216	7164.93
685.284	7361.3
685.351	7072.66
685.419	7093.96
685.487	7049
685.555	7013.52
685.622	7091.59
685.69	7183.86
685.757	7086.86
685.825	6892.86
685.893	7221.71
685.96	7004.05
686.028	7093.96
686.095	7032.44
686.162	7148.37
686.23	7169.67
686.297	6989.86
686.365	7183.86
686.432	6907.05
686.499	7157.84
686.567	7138.91
686.634	7098.69
686.701	7020.61
686.768	7046.64
686.835	6975.66
686.903	7110.52
686.97	7018.25
687.037	7292.69
687.104	7089.22
687.171	7134.18
687.238	7101.05
687.305	6902.32
687.372	7030.08
687.439	7245.37
687.506	6959.1
687.573	6847.9
687.64	6878.66
687.707	6918.88
687.773	6992.22
687.84	6961.47
687.907	7001.69
687.974	6961.47
688.041	6904.69
688.107	7098.69
688.174	7053.74
688.241	6942.54
688.307	6897.59
688.374	6916.52
688.44	6963.83
688.507	7122.35
688.573	6878.66
688.64	6949.64
688.706	6916.52
688.773	6644.44
688.839	6760.37
688.906	6793.49
688.972	7091.59
689.038	6810.05
689.105	6838.44
689.171	6802.95
689.237	7025.35
689.304	6845.54
689.37	6682.29
689.436	6393.65
689.502	6779.29
689.568	6798.22
689.634	6661
689.7	6760.37
689.766	6826.61
689.833	6665.73
689.899	6765.1
689.965	6620.78
690.03	6810.05
690.096	6679.93
690.162	6625.51
690.228	6845.54
690.294	6779.29
690.36	6675.2
690.426	6519.05
690.491	6599.49
690.557	6817.15
690.623	6542.71
690.689	6552.17
690.754	6327.41
690.82	6634.98
690.886	6653.9
690.951	6521.41
691.017	6668.1
691.082	6758
691.148	6705.95
691.213	6523.78
691.279	6471.73
691.344	6649.17
691.41	6559.27
691.475	6459.9
691.541	6464.63
691.606	6627.88
691.671	6457.53
691.736	6597.12
691.802	6471.73
691.867	6452.8
691.932	6547.44
691.997	6448.07
692.063	6639.71
692.128	6377.09
692.193	6388.92
692.258	6476.46
692.323	6398.39
692.388	6585.29
692.453	6377.09
692.518	6459.9
692.583	6455.17
692.648	6436.24
692.713	6367.63
692.778	6407.85
692.843	6649.17
692.907	6438.61
692.972	6414.95
693.037	6400.75
693.102	6088.46
693.167	6452.8
693.231	6322.68
693.296	6360.53
693.361	6332.14
693.425	6604.22
693.49	6386.56
693.554	6343.97
693.619	6315.58
693.683	6336.87
693.748	6216.21
693.812	6090.82
693.877	6211.48
693.941	6265.9
694.006	6351.07
694.07	6123.94
694.134	6284.82
694.199	6183.09
694.263	6202.02
694.327	6197.29
694.392	6351.07
694.456	6370
694.52	6147.6
694.584	6135.77
694.648	6175.99
694.712	6152.33
694.777	6242.24
694.841	6204.38
694.905	6112.11
694.969	6235.14
695.033	6140.51
695.097	6078.99
695.161	6095.55
695.224	6183.09
695.288	6048.24
695.352	6161.8
695.416	6026.94
695.48	6140.51
695.544	6138.14
695.607	6244.6
695.671	6299.02
695.735	5882.62
695.799	6031.67
695.862	6026.94
695.926	5986.72
695.989	5937.04
696.053	5915.75
696.117	6008.02
696.18	5922.84
696.244	6246.97
696.307	5991.45
696.371	6062.43
696.434	6105.02
696.497	6095.55
696.561	5870.79
696.624	6090.82
696.687	5882.62
696.751	5998.55
696.814	5792.72
696.877	6242.24
696.94	6019.85
697.004	5903.92
697.067	5986.72
697.13	5974.89
697.193	5927.58
697.256	5837.67
697.319	5929.94
697.382	5858.97
697.445	5738.3
697.508	5863.7
697.571	5814.01
697.634	5728.84
697.697	5851.87
697.76	5783.26
697.823	5764.33
697.886	5802.18
697.948	5634.21
698.011	5721.74
698.074	5577.42
698.137	5939.41
698.199	5724.11
698.262	5688.62
698.325	5690.99
698.387	5894.45
698.45	5870.79
698.513	5638.94
698.575	5705.18
698.638	5698.08
698.7	5539.57
698.763	5667.33
698.825	5731.21
698.888	5683.89
698.95	5683.89
699.012	5537.2
699.075	5575.06
699.137	5534.84
699.199	5674.43
699.262	5764.33
699.324	5669.69
699.386	5515.91
699.448	5544.3
699.51	5731.21
699.573	5468.59
699.635	5641.3
699.697	5381.06
699.759	5385.79
699.821	5449.67
699.883	5423.64
699.945	5392.89
700.007	5395.25
700.069	5369.23
700.131	5785.62
700.193	5525.38
700.255	5390.52
700.316	5260.4
700.378	5288.79
700.44	5376.32
700.502	5383.42
700.564	5347.93
700.625	5437.84
700.687	5385.79
700.749	5291.15
700.81	5255.66
700.872	5305.35
700.933	5116.08
700.995	5357.4
701.057	5208.35
701.118	5324.28
